{"PPG": {"2021-12-02 16:00:00": "159.5900", "2021-12-02 15:30:00": "159.2300", "2021-12-02 15:00:00": "159.1700", "2021-12-02 14:30:00": "159.7500", "2021-12-02 14:00:00": "159.0950", "2021-12-02 13:30:00": "158.9100", "2021-12-02 13:00:00": "158.9100", "2021-12-02 12:30:00": "159.0100", "2021-12-02 12:00:00": "158.5850", "2021-12-02 11:30:00": "158.2000", "2021-12-02 11:00:00": "158.0900", "2021-12-02 10:30:00": "156.1900", "2021-12-02 10:00:00": "154.3400", "2021-12-01 16:30:00": "153.4800", "2021-12-01 16:00:00": "154.8900", "2021-12-01 15:30:00": "156.5300", "2021-12-01 15:00:00": "157.2900", "2021-12-01 14:30:00": "157.2400", "2021-12-01 14:00:00": "157.7800", "2021-12-01 13:30:00": "157.9100", "2021-12-01 13:00:00": "158.4300", "2021-12-01 12:30:00": "158.2100", "2021-12-01 12:00:00": "158.7900", "2021-12-01 11:30:00": "159.0200", "2021-12-01 11:00:00": "158.6150", "2021-12-01 10:30:00": "157.5600", "2021-12-01 10:00:00": "156.3500", "2021-11-30 16:30:00": "154.1700", "2021-11-30 16:00:00": "154.7600", "2021-11-30 15:30:00": "154.6150", "2021-11-30 15:00:00": "155.5700", "2021-11-30 14:30:00": "155.0100", "2021-11-30 14:00:00": "155.0400", "2021-11-30 13:30:00": "154.8300", "2021-11-30 13:00:00": "155.2700", "2021-11-30 12:30:00": "155.6800", "2021-11-30 12:00:00": "156.9400", "2021-11-30 11:30:00": "156.5700", "2021-11-30 11:00:00": "157.1500", "2021-11-30 10:30:00": "156.1700", "2021-11-30 10:00:00": "155.8400", "2021-11-29 16:00:00": "157.7240", "2021-11-29 15:30:00": "157.8700", "2021-11-29 15:00:00": "158.1000", "2021-11-29 14:30:00": "157.8150", "2021-11-29 14:00:00": "157.8500", "2021-11-29 13:30:00": "158.0950", "2021-11-29 13:00:00": "158.0599", "2021-11-29 12:30:00": "157.6800", "2021-11-29 12:00:00": "156.8300", "2021-11-29 11:30:00": "156.5400", "2021-11-29 11:00:00": "156.4900", "2021-11-29 10:00:00": "156.9000", "2021-11-26 13:30:00": "155.6000", "2021-11-26 13:00:00": "155.9800", "2021-11-26 12:30:00": "154.3800", "2021-11-26 12:00:00": "153.9100", "2021-11-26 11:30:00": "154.2400", "2021-11-26 11:00:00": "154.2200", "2021-11-26 10:30:00": "153.8300", "2021-11-26 10:00:00": "155.1200", "2021-11-24 16:30:00": "158.7600", "2021-11-24 16:00:00": "158.4500", "2021-11-24 15:30:00": "158.4900", "2021-11-24 15:00:00": "158.3700", "2021-11-24 14:30:00": "158.6300", "2021-11-24 14:00:00": "158.8450", "2021-11-24 13:30:00": "158.7800", "2021-11-24 13:00:00": "158.5100", "2021-11-24 12:30:00": "159.5900", "2021-11-24 12:00:00": "159.7100", "2021-11-24 11:30:00": "159.5000", "2021-11-24 11:00:00": "159.1900", "2021-11-24 10:30:00": "159.2400", "2021-11-24 10:00:00": "159.7200", "2021-11-23 16:00:00": "160.1600", "2021-11-23 15:30:00": "160.4900", "2021-11-23 15:00:00": "160.7500", "2021-11-23 14:30:00": "161.0000", "2021-11-23 14:00:00": "160.9100", "2021-11-23 13:30:00": "160.8600", "2021-11-23 13:00:00": "160.8500", "2021-11-23 12:30:00": "160.5400", "2021-11-23 12:00:00": "160.4200", "2021-11-23 11:30:00": "160.2700", "2021-11-23 11:00:00": "161.3450", "2021-11-23 10:30:00": "161.7600", "2021-11-23 10:00:00": "161.3500", "2021-11-22 16:30:00": "161.2900", "2021-11-22 16:00:00": "162.9600", "2021-11-22 15:30:00": "162.3250", "2021-11-22 15:00:00": "162.2500", "2021-11-22 14:30:00": "162.6962", "2021-11-22 14:00:00": "162.4900", "2021-11-22 13:30:00": "162.0900", "2021-11-22 13:00:00": "162.0642", "2021-11-22 12:30:00": "162.0000", "2021-11-22 12:00:00": "162.3600", "2021-11-22 11:30:00": "162.3550", "2021-11-22 11:00:00": "161.7350", "2021-11-22 10:30:00": "162.6500", "2021-11-22 10:00:00": "161.4400", "2021-11-19 16:30:00": "160.8400", "2021-11-19 16:00:00": "160.8500", "2021-11-19 15:30:00": "161.0100", "2021-11-19 15:00:00": "161.4500", "2021-11-19 14:30:00": "161.6000", "2021-11-19 14:00:00": "161.9400", "2021-11-19 13:30:00": "162.7200", "2021-11-19 13:00:00": "162.0700", "2021-11-19 12:30:00": "162.1100", "2021-11-19 12:00:00": "161.6500", "2021-11-19 11:30:00": "162.1100", "2021-11-19 10:30:00": "162.7300", "2021-11-19 10:00:00": "162.4300", "2021-11-18 16:30:00": "162.3500", "2021-11-18 16:00:00": "162.2900", "2021-11-18 15:30:00": "162.6700", "2021-11-18 15:00:00": "162.4550", "2021-11-18 14:30:00": "163.3100", "2021-11-18 14:00:00": "162.6950", "2021-11-18 13:00:00": "163.7500", "2021-11-18 12:30:00": "164.0300", "2021-11-18 12:00:00": "164.0200", "2021-11-18 11:30:00": "164.5850", "2021-11-18 11:00:00": "163.7300", "2021-11-18 10:30:00": "164.5300", "2021-11-18 10:00:00": "164.4500", "2021-11-17 16:30:00": "164.3000", "2021-11-17 16:00:00": "164.4400", "2021-11-17 15:30:00": "164.4100", "2021-11-17 15:00:00": "164.0200", "2021-11-17 14:30:00": "164.0500", "2021-11-17 14:00:00": "163.9400", "2021-11-17 13:30:00": "164.2300", "2021-11-17 13:00:00": "164.0700", "2021-11-17 12:30:00": "164.0550", "2021-11-17 12:00:00": "163.9400", "2021-11-17 11:30:00": "164.2900", "2021-11-17 11:00:00": "163.6700", "2021-11-17 10:30:00": "163.9800", "2021-11-17 10:00:00": "164.2900", "2021-11-16 16:30:00": "164.8400", "2021-11-16 16:00:00": "165.8000", "2021-11-16 15:30:00": "165.0650", "2021-11-16 15:00:00": "165.7200", "2021-11-16 14:30:00": "166.1600", "2021-11-16 14:00:00": "166.5300", "2021-11-16 13:30:00": "166.1250", "2021-11-16 13:00:00": "166.2100", "2021-11-16 12:30:00": "165.9900", "2021-11-16 12:00:00": "165.4200", "2021-11-16 11:30:00": "164.9400", "2021-11-16 10:30:00": "164.1950", "2021-11-16 10:00:00": "163.4000", "2021-11-15 16:00:00": "162.7300", "2021-11-15 15:30:00": "162.6300", "2021-11-15 15:00:00": "162.3300", "2021-11-15 14:30:00": "162.5500", "2021-11-15 14:00:00": "162.3500", "2021-11-15 13:30:00": "162.6700", "2021-11-15 13:00:00": "162.3000", "2021-11-15 12:30:00": "160.9600", "2021-11-15 12:00:00": "160.5300", "2021-11-15 11:30:00": "160.8900", "2021-11-15 11:00:00": "161.2900", "2021-11-15 10:30:00": "161.5800", "2021-11-15 10:00:00": "161.9700", "2021-11-12 16:30:00": "161.6400", "2021-11-12 16:00:00": "161.5300", "2021-11-12 15:30:00": "161.5500", "2021-11-12 14:30:00": "161.2100", "2021-11-12 14:00:00": "161.2300", "2021-11-12 13:30:00": "161.5500", "2021-11-12 13:00:00": "161.1950", "2021-11-12 12:30:00": "161.0050", "2021-11-12 12:00:00": "161.0300", "2021-11-12 11:30:00": "161.1100", "2021-11-12 11:00:00": "160.9400", "2021-11-12 10:30:00": "159.5400", "2021-11-12 10:00:00": "159.7700", "2021-11-11 16:00:00": "159.6400", "2021-11-11 15:30:00": "159.8250", "2021-11-11 15:00:00": "159.7900", "2021-11-11 14:30:00": "159.7950", "2021-11-11 14:00:00": "160.2400", "2021-11-11 13:30:00": "160.5200", "2021-11-11 13:00:00": "158.7900", "2021-11-11 12:30:00": "158.6800", "2021-11-11 12:00:00": "158.9300", "2021-11-11 11:30:00": "159.1300", "2021-11-11 11:00:00": "159.4200", "2021-11-11 10:00:00": "160.5000", "2021-11-10 16:00:00": "160.8300", "2021-11-10 15:30:00": "160.7500", "2021-11-10 15:00:00": "161.0100", "2021-11-10 14:30:00": "161.3650", "2021-11-10 14:00:00": "161.6650", "2021-11-10 13:30:00": "161.7400", "2021-11-10 13:00:00": "161.7200", "2021-11-10 12:30:00": "162.0200", "2021-11-10 12:00:00": "162.1000", "2021-11-10 11:30:00": "162.1100", "2021-11-10 11:00:00": "162.3200", "2021-11-10 10:30:00": "163.3100", "2021-11-10 10:00:00": "161.6000", "2021-11-09 16:30:00": "161.4500", "2021-11-09 16:00:00": "161.2800", "2021-11-09 15:30:00": "161.7250", "2021-11-09 15:00:00": "161.7550", "2021-11-09 14:30:00": "161.7800", "2021-11-09 14:00:00": "162.0000", "2021-11-09 13:30:00": "161.9300", "2021-11-09 13:00:00": "161.6700", "2021-11-09 12:30:00": "161.3600", "2021-11-09 12:00:00": "162.3100", "2021-11-09 11:30:00": "162.7500", "2021-11-09 11:00:00": "163.3800", "2021-11-09 10:30:00": "163.1600", "2021-11-09 10:00:00": "162.0300", "2021-11-08 16:30:00": "161.8784", "2021-11-08 16:00:00": "161.6592", "2021-11-08 15:30:00": "161.9332", "2021-11-08 15:00:00": "162.0478", "2021-11-08 14:30:00": "162.1973", "2021-11-08 14:00:00": "162.3567", "2021-11-08 13:30:00": "162.3503", "2021-11-08 13:00:00": "162.9396", "2021-11-08 12:30:00": "162.9645", "2021-11-08 12:00:00": "163.5722", "2021-11-08 11:30:00": "163.0741", "2021-11-08 11:00:00": "164.0395", "2021-11-08 10:30:00": "163.2933", "2021-11-08 10:00:00": "162.6656", "2021-11-05 16:00:00": "162.8349", "2021-11-05 15:30:00": "162.6855", "2021-11-05 15:00:00": "162.9844", "2021-11-05 14:30:00": "162.9944", "2021-11-05 14:00:00": "162.2670", "2021-11-05 13:30:00": "162.7752", "2021-11-05 13:00:00": "163.1936", "2021-11-05 12:30:00": "162.4962", "2021-11-05 12:00:00": "164.2797", "2021-11-05 11:30:00": "164.1551", "2021-11-05 11:00:00": "164.7181", "2021-11-05 10:30:00": "164.7081", "2021-11-05 10:00:00": "163.3232", "2021-11-04 16:30:00": "162.6556", "2021-11-04 16:00:00": "162.5560", "2021-11-04 15:30:00": "163.0741", "2021-11-04 15:00:00": "163.1886", "2021-11-04 14:30:00": "163.3829", "2021-11-04 14:00:00": "163.3630", "2021-11-04 13:30:00": "162.8997", "2021-11-04 13:00:00": "162.7851", "2021-11-04 12:30:00": "163.2733", "2021-11-04 12:00:00": "162.3667", "2021-11-04 11:30:00": "163.3630", "2021-11-04 11:00:00": "163.1438", "2021-11-04 10:30:00": "162.6606", "2021-11-04 10:00:00": "162.2969", "2021-11-03 16:30:00": "162.2172", "2021-11-03 16:00:00": "162.8489", "2021-11-03 15:30:00": "162.1275", "2021-11-03 15:00:00": "161.2557", "2021-11-03 14:30:00": "161.1909", "2021-11-03 14:00:00": "161.2308", "2021-11-03 13:30:00": "160.8621", "2021-11-03 12:30:00": "160.8621", "2021-11-03 12:00:00": "160.7924", "2021-11-03 11:30:00": "160.6928", "2021-11-03 11:00:00": "160.2046", "2021-11-03 10:30:00": "160.5035", "2021-11-03 10:00:00": "160.6529", "2021-11-02 16:00:00": "160.9319", "2021-11-02 15:30:00": "161.2707", "2021-11-02 15:00:00": "161.1511", "2021-11-02 14:30:00": "160.9668", "2021-11-02 14:00:00": "161.2208", "2021-11-02 13:30:00": "160.9668", "2021-11-02 13:00:00": "160.6230", "2021-11-02 12:30:00": "159.9355", "2021-11-02 12:00:00": "160.2344", "2021-11-02 11:30:00": "160.1448", "2021-11-02 10:30:00": "160.6728", "2021-11-02 10:00:00": "159.5370", "2021-11-01 16:30:00": "158.4510", "2021-11-01 16:00:00": "158.6851", "2021-11-01 15:30:00": "158.5008", "2021-11-01 15:00:00": "158.9242", "2021-11-01 14:30:00": "159.4374", "2021-11-01 14:00:00": "159.4772", "2021-11-01 13:30:00": "159.8160", "2021-11-01 13:00:00": "159.2281", "2021-11-01 12:30:00": "158.8595", "2021-11-01 12:00:00": "158.3214", "2021-11-01 11:30:00": "158.8744", "2021-11-01 11:00:00": "158.7997", "2021-11-01 10:30:00": "159.5768", "2021-11-01 10:00:00": "159.8359", "2021-10-29 16:30:00": "159.9854", "2021-10-29 16:00:00": "159.9156", "2021-10-29 15:30:00": "159.7363", "2021-10-29 14:30:00": "159.4672", "2021-10-29 14:00:00": "159.5968", "2021-10-29 13:30:00": "160.8522", "2021-10-29 13:00:00": "161.5397", "2021-10-29 12:30:00": "161.8784", "2021-10-29 12:00:00": "161.8984", "2021-10-29 11:30:00": "162.0179", "2021-10-29 11:00:00": "162.1773", "2021-10-29 10:30:00": "162.7752", "2021-10-29 10:00:00": "161.6194", "2021-10-28 16:00:00": "162.1973", "2021-10-28 15:30:00": "162.4613", "2021-10-28 15:00:00": "162.4563", "2021-10-28 14:30:00": "162.5958", "2021-10-28 14:00:00": "162.5659", "2021-10-28 13:30:00": "162.3567", "2021-10-28 13:00:00": "162.5609", "2021-10-28 12:30:00": "162.2272", "2021-10-28 12:00:00": "162.0379", "2021-10-28 11:30:00": "161.9283", "2021-10-28 11:00:00": "161.3155", "2021-10-28 10:30:00": "162.6108", "2021-10-28 10:00:00": "161.5297", "2021-10-27 16:00:00": "161.0764", "2021-10-27 15:30:00": "161.5696", "2021-10-27 15:00:00": "162.0329", "2021-10-27 14:30:00": "161.8386", "2021-10-27 14:00:00": "161.9880", "2021-10-27 13:30:00": "161.4799", "2021-10-27 13:00:00": "161.1909", "2021-10-27 12:30:00": "161.0515", "2021-10-27 12:00:00": "160.7525", "2021-10-27 11:30:00": "160.9319", "2021-10-27 11:00:00": "160.4736", "2021-10-27 10:30:00": "160.8323", "2021-10-27 10:00:00": "161.2408", "2021-10-26 16:30:00": "161.2806", "2021-10-26 16:00:00": "161.6493", "2021-10-26 15:30:00": "161.7041", "2021-10-26 15:00:00": "161.6393", "2021-10-26 14:30:00": "161.4301", "2021-10-26 14:00:00": "160.8123", "2021-10-26 13:30:00": "160.6629", "2021-10-26 13:00:00": "160.5533", "2021-10-26 12:30:00": "160.6728", "2021-10-26 12:00:00": "160.1448", "2021-10-26 11:30:00": "160.2344", "2021-10-26 11:00:00": "160.8522", "2021-10-26 10:00:00": "159.5270", "2021-10-25 16:30:00": "159.4872", "2021-10-25 16:00:00": "160.0302", "2021-10-25 15:30:00": "159.8060", "2021-10-25 15:00:00": "159.8558", "2021-10-25 14:30:00": "160.3042", "2021-10-25 14:00:00": "160.8123", "2021-10-25 13:30:00": "160.3839", "2021-10-25 13:00:00": "160.6230", "2021-10-25 12:30:00": "160.1348", "2021-10-25 12:00:00": "159.8558", "2021-10-25 11:30:00": "159.5669", "2021-10-25 11:00:00": "159.2480", "2021-10-25 10:30:00": "158.6154", "2021-10-25 10:00:00": "161.6094"}}